#input
r(A),H1-H1,H1-H2,H1-O,H2-H1,H2-H2,H2-O,O-H1,O-H2,O-O
0.03125,-0.003154783372849579,-0.003154331253327314,-0.005595727650955951,-0.0031547873613533284,-0.0031542333946674717,-0.00559623313952784,-0.005596245846419379,-0.005597031522853513,-0.006808032504295625
0.09375,-0.003148878854688064,-0.0031484204187961495,-0.005514470500145308,-0.003148876011451307,-0.0031483231098548004,-0.005514984544333856,-0.005514990437859524,-0.005515780816892857,-0.006734248379075325
0.15625,-0.0031350506791056887,-0.0031345893143139847,-0.005432731041736361,-0.0031350374362375533,-0.003134482422211704,-0.0054332550700451065,-0.00543325155859975,-0.005434042262379535,-0.0066079955489612985
0.21875,-0.003128194588896349,-0.003127734805474347,-0.005320119480785479,-0.003128173865221129,-0.0031276185249708988,-0.00532065211933741,-0.005320641457615238,-0.00532142828006954,-0.006478169437457382
0.28125,-0.0031218330476860956,-0.00312137658350764,-0.005154244447339806,-0.0031218022699306403,-0.0031212511304516966,-0.005154779726353809,-0.00515476585894703,-0.005155544554639846,-0.006353836067830798
0.34375,-0.0031064047007873796,-0.0031059513292603924,-0.0049386385131242605,-0.0031063644562010495,-0.0031058193525552724,-0.00493916223922497,-0.004939163050295292,-0.004939924303613452,-0.006227672165209697
0.40625,-0.0030578929011113587,-0.0030574461041510403,-0.004702622145316582,-0.0030578461603312235,-0.0030573098536734733,-0.004703117430466364,-0.004703153457455755,-0.004703885914153716,-0.0060673980565297825
0.46875,-0.0029625665457757577,-0.0029621276059117463,-0.00443446177274609,-0.0029625143506279983,-0.0029619899867867616,-0.004434920130506725,-0.0044349950917421666,-0.004435694888314856,-0.005851280555873473
0.53125,-0.00281459052108346,-0.002814161870759335,-0.004114677164579916,-0.002814532379602497,-0.0028140231097353308,-0.004115103428432576,-0.004115205521429743,-0.004115876698108423,-0.005563627665253534
0.59375,-0.002628895450584423,-0.00262847648816944,-0.003749614991534145,-0.0026288312801057145,-0.0026283361877688094,-0.0037500179540757017,-0.0037501333099783096,-0.003750779579746677,-0.00521202578829616
0.65625,-0.0024187458602540346,-0.0024183381189288866,-0.0033654970717407195,-0.00241867453566158,-0.0024181947859318598,-0.0033658798396345446,-0.0033660005977083074,-0.0033666243362802106,-0.004804935103152275
0.71875,-0.0021889876328486935,-0.0021885914448063204,-0.0029832141376004984,-0.002188906781981359,-0.0021884442152781958,-0.002983577332884124,-0.0029837000340933173,-0.002984301468131889,-0.0043531557411142785
0.78125,-0.0019493075465675247,-0.0019489274654205246,-0.0026166654900237063,-0.0019492214810981068,-0.0019487797727606448,-0.0026170083856982274,-0.00261713167697053,-0.0026177104735154444,-0.0038779783417339786
0.84375,-0.001744209166773203,-0.0017438522127548595,-0.0022705486701113387,-0.0017441276153675744,-0.0017437137809963588,-0.0022708706529499523,-0.002270993429334567,-0.0022715492769691537,-0.003467455968973354
0.90625,-0.0015807290214695513,-0.0015803999183106043,-0.0019461198004933067,-0.0015806602189769592,-0.0015802784773768508,-0.001946419312702119,-0.0019465420009225909,-0.001947074476220223,-0.003133203720210531
0.96875,-0.0014143925013456737,-0.0014140899158121556,-0.001641831766960422,-0.001414335070947459,-0.0014139839040012703,-0.0016421085420574855,-0.0016422316779767243,-0.0016427397026461676,-0.002782921872949373
1.03125,-0.0012245767357512705,-0.0012242971512250733,-0.0013564137453272451,-0.0012245241864974332,-0.0012241999224755773,-0.0013566681568306649,-0.0013567915929399987,-0.0013572749893455693,-0.002369670924736056
1.09375,-0.0010227803656874812,-0.0010225215634847018,-0.0010852012141810974,-0.0010227288395014966,-0.0010224284698665542,-0.0010854340725643397,-0.0010855572201933228,-0.001086016268544654,-0.0019112459984853558
1.15625,-0.0008228423046574562,-0.0008226023404773741,-0.0008223689767419273,-0.0008227897740766821,-0.0008225108292947425,-0.000822580289934649,-0.0008227032817273994,-0.0008231369401130451,-0.0014352340188565904
1.21875,-0.00062932035316976,-0.000629098823353047,-0.0005621331040401856,-0.0006292658443385335,-0.0006290075655641658,-0.0005623225915485364,-0.0005624453517611983,-0.0005628524251051203,-0.0009567306510120943
1.28125,-0.0004400675806977006,-0.0004398636639848519,-0.0003039783819076547,-0.00044001171747254375,-0.00043977321251986723,-0.0003041455411505467,-0.00030426763217406005,-0.000304647547636705,-0.0004854614869600482
1.34375,-0.0002353776068417801,-0.00023519125265636376,-0.000050170390068160486,-0.0002353212225614243,-0.00023510222335687558,-0.00005031415321354871,-0.00005043529330350793,-0.00005078713550688008,-0.00002811849896033891
1.40625,0.00008174492459289695,0.00008191301627391567,0.00019347347939913107,0.00008179950977194039,0.00008199863857072387,0.00019335319652213911,0.00019323349502542442,0.00019291067003734952,0.00040144093139815595
1.46875,0.000906497318055699,0.0009066460921260955,0.0004208721835112783,0.0009065484146688618,0.0009067265469440144,0.00042077441736410037,0.0004206570731781767,0.00042036371335996137,0.0007897316534979382
1.53125,0.0033985695155038798,0.0033986960713079384,0.0007811223121763078,0.0033986147503028974,0.0033987688370942237,0.000781045708123429,0.0007809319210423382,0.0007806684104281203,0.0011225932526883753
1.59375,0.010103148633390902,0.01010324545473651,0.02818995325611695,0.010103183838815255,0.010103306213409269,0.028189938224599587,0.02818981781446439,0.028189673727482045,0.0013920264512137237
1.65625,0.025258172563034975,0.025258228144750206,0.3141992408489642,0.02525819160003806,0.025258270107045178,0.3141996355445116,0.314199415174258,0.31420013428997606,0.0015944879718574612
1.71875,0.054185585439988415,0.054185585957391424,0.8380776115335493,0.054185582087839634,0.05418560156866192,0.8380786102516851,0.8380782395677926,0.8380802348574008,0.0017338278975955745
1.78125,0.10165795811406753,0.10165789257170843,1.058369311526988,0.10165792725926792,0.1016578752021502,1.058370443460646,1.0583700398575928,1.058372293501094,0.0018172524778776733
1.84375,0.16989800345324824,0.16989786896141368,0.9415750302877939,0.16989794456578977,0.16989781664791792,0.9415759493723783,0.9415755899489824,0.9415773465681099,0.0018554204571898936
1.90625,0.2573966258584264,0.25739643051157657,0.7395952419526282,0.25739654392432243,0.2573963471824854,0.7395959170642641,0.7395956111371333,0.739596814476073,0.0018570073322621283
1.96875,0.3590515881352587,0.3590513507589037,0.5778890169714117,0.35905149340722886,0.3590512465847553,0.577889509498803,0.5778892551195867,0.5778900653219665,0.0018295658191789244
2.03125,0.4676977113052203,0.46769745685833186,0.4726951274609661,0.46769761593633774,0.4676973447992552,0.47269549110653486,0.4726952870797021,0.4726958431756003,0.0017761718451652087
2.09375,0.5758731008116911,0.5758728547058496,0.4100386463154848,0.5758730168785675,0.5758727479896706,0.4100389158252824,0.41003875979447457,0.4100391487524746,0.0016987936816974525
2.15625,0.6776629282854358,0.6776627119878142,0.37593563818965947,0.6776628648669316,0.6776626213742247,0.3759358355108162,0.3759357235257852,0.3759359967810667,0.0015963400424823249
2.21875,0.7693235960036517,0.7693234250148677,0.36147615125342725,0.7693235586121148,0.7693233576543719,0.36147629041582263,0.3614762185284235,0.36147640609169684,0.0014689337550350956
2.28125,0.8492449753470552,0.849244859507543,0.36170748031904054,0.8492449664870989,0.8492448193536575,0.3617075705652013,0.3617075354309236,0.36170765440037655,0.0013159919344616355
2.34375,0.9170586693467015,0.9170586129676153,0.374076444012303,0.9170586892674351,0.9170586015929345,0.3740764912027146,0.3740764905201246,0.37407654993006645,0.001140280595279819
2.40625,0.9735843913634881,0.9735843940228293,0.3973757279204193,0.9735844381946777,0.9735844105873852,0.3973757351616314,0.3973757678989074,0.39737577132486024,0.0009441165043710953
2.46875,1.020115254781473,1.0201153132021048,0.4311588473370307,1.020115325903653,1.0201153558688958,0.43115881585522686,0.43115888215443476,0.4311588290660069,0.0007475798439315895
2.53125,1.053683619857388,1.0536837313649983,0.4753427044758354,1.0536837188624375,1.0536838044312802,0.47534263473760063,0.4753427351583923,0.4753426229835753,0.001755808407637005
2.59375,1.0608060358385458,1.0608061787596341,0.5299004921586032,1.060806159259819,1.060806279623101,0.5299003842014258,0.5299005194830642,0.5299003446137647,0.024937343002960688
2.65625,1.0421716223095387,1.0421717509337896,0.5945379213892323,1.042171740418162,1.0421718503444737,0.5945377752766774,0.5945379458084403,0.5945377052338188,0.17314017180078167
2.71875,1.0183916711208738,1.0183917636153623,0.6684541963406048,1.0183917629261359,1.018391840339845,0.6684540130616625,0.6684542183620579,0.6684539106266243,0.5997174536876173
2.78125,1.0018747181534025,1.0018747783298991,0.7501614357509823,1.0018747821699066,1.0018748304116585,0.7501612175249761,0.7501614558422034,0.7501610824733831,1.2927705504491769
2.84375,0.9940546855589716,0.994054722929981,0.8375087555998846,0.9940547268731308,0.994054755067495,0.8375085058855802,0.8375087741904963,0.8375083402089842,2.017385643195354
2.90625,0.9925269199487659,0.9925269413772284,0.9278195533331939,0.9925269433659665,0.9925269581040013,0.9278192769127998,0.9278195710603825,0.9278190847995091,2.5241515486519006
2.96875,0.995427582183595,0.9954275913439332,1.0174168771683583,0.9954275908647858,0.9954275956216989,1.0174165810757785,1.0174168926634621,1.0174163681168835,2.7231867384425357
3.03125,1.0016450663933298,1.0016450648129762,1.099287341635815,1.0016450623227655,1.0016450584482186,1.099287039870859,1.0992873434815778,1.0992868100849762,2.668557952006779
3.09375,1.0106973286928849,1.0106973167287236,1.1679060961989904,1.0106973130843997,1.010697300742848,1.1679058057920315,1.1679060691551513,1.1679055627218986,2.4658990564358305
3.15625,1.0220657918581253,1.0220657693506752,1.225832649940422,1.0220657656017131,1.022065744406028,1.2258323794261088,1.2258325923189872,1.2258321305263138,2.2056364448713026
3.21875,1.0352394071569861,1.0352393738697039,1.2771857456487226,1.0352393709966634,1.035239340445127,1.2771854956731872,1.2771856661702898,1.27718525092574,1.944757630369267
3.28125,1.049519287928863,1.0495192438117193,1.3237465679310674,1.0495192426881523,1.0495192024247828,1.323746336403822,1.3237464770473721,1.323746105433834,1.7108783988576306
3.34375,1.0641980364086336,1.0641979815884284,1.3659496758024403,1.0641979829666681,1.0641979328056266,1.3659494605206461,1.365949582105216,1.3659492512715161,1.513490215111105
3.40625,1.0784011756812255,1.07840111028451,1.4040389731945169,1.0784011149379822,1.0784010546753322,1.404038772764551,1.4040388831977637,1.4040385914381162,1.3520692486391255
3.46875,1.0913199898057506,1.0913199139736385,1.4377503622168106,1.0913199226681556,1.0913198521639238,1.4377501785101146,1.4377502801494373,1.4377500292153087,1.222217770387374
3.53125,1.1023154340779087,1.1023153485701052,1.464592101190128,1.1023153617633135,1.1023152815184538,1.4645919453254521,1.4645920288198724,1.4645918299081018,1.118641352198324
3.59375,1.1111065106691633,1.1111064174748861,1.4768216619019299,1.1111064349820943,1.111106346794564,1.476821559197269,1.4768215994577147,1.4768214781087678,1.0367304412106648
3.65625,1.1175402178405172,1.1175401203192905,1.4631682331748976,1.1175401412411183,1.1175400483160445,1.463168210210391,1.4631681807080739,1.4631681629863138,0.9725135736601231
3.71875,1.1215259188594935,1.1215258213576398,1.4181271715808847,1.1215258442451415,1.121525750843574,1.4181272330355483,1.4181271289584814,1.4181272175833186,0.9227126104248242
3.78125,1.1228994433647976,1.1228993506323839,1.348160460045463,1.1228993737535617,1.1228992845781605,1.3481605847461324,1.3481604267539709,1.3481605970057657,0.8845076570506336
3.84375,1.121541505893795,1.1215414225412026,1.2669501139547208,1.1215414441227018,1.1215413637601657,1.2669502716188035,1.2669500890681533,1.266950306385219,0.8556242666072507
3.90625,1.1174911465310338,1.117491076177778,1.1870241930978551,1.1174910946962306,1.1174910267875227,1.1870243595963288,1.1870241755631525,1.1870244117422644,0.8341833035327539
3.96875,1.111225566986942,1.1112255115505434,1.1157041565042718,1.1112255260635742,1.1112254725821593,1.115704318216011,1.1157041453825585,1.115704383459999,0.8188081023715199
4.03125,1.1032747393732691,1.103274699628006,1.0556064808314716,1.1032747097370894,1.1032746715307127,1.0556066320974296,1.0556064754166457,1.055606707177212,0.8084605817134474
4.09375,1.093888316861225,1.0938882932185443,1.0065898354613338,1.0938882987645044,1.0938882763144804,1.0065899750122895,1.0065898352699492,1.0065900575193893,0.8023273110390932
4.15625,1.0830994029770977,1.0830993956508763,0.9673688219655503,1.0830993966257232,1.0830993901998376,0.9673689503777965,0.9673688267155569,0.9673690385714835,0.7996415034501041
4.21875,1.070933771796465,1.070933780765646,0.9364111538536051,1.070933777211497,1.070933786837923,0.93641127224857,0.9364111633912557,0.9364113648665082,0.7997336900583605
4.28125,1.057422322579015,1.0574223475171074,0.9123349916108126,1.0574223395951705,1.0574223649875094,0.9123351010622969,0.912335005852384,0.9123351971780522,0.8019670862332191
4.34375,1.0426436119859375,1.0426436521614662,0.8939968591441456,1.0426436401710184,1.0426436806347112,0.8939969604590132,0.8939968779760576,0.893997059307317,0.8057928208058485
4.40625,1.0267347412563375,1.0267347953545354,0.8804269852999056,1.0267347797210817,1.0267348339753077,0.8804270789155737,0.8804270084583976,0.8804271795733243,0.8107210865530163
4.46875,1.010052591125877,1.0100526568578871,0.8707086951544909,1.0100526381265382,1.0100527039144502,0.870708781047,0.8707087220589145,0.8707088820182136,0.8164789387433729
4.53125,0.9933148513805321,0.9933149252531308,0.8639438385349294,0.9933149040662954,0.9933149779220081,0.863943916098016,0.8639438682047427,0.8639440150535549,0.8231405238301619
4.59375,0.9775837913608925,0.9775838692398402,0.8593535978943407,0.9775838462724451,0.9775839240877815,0.8593536660930425,0.8593536290425448,0.8593537599963952,0.8311708251805925
4.65625,0.9638616788242302,0.963861757064933,0.8564302732917284,0.963861732970912,0.9638618111240156,0.856430330913291,0.8564303045090824,0.8564304165547583,0.8410317286639355
4.71875,0.9527255063876332,0.9527255825366794,0.8549830468809674,0.9527255579075167,0.9527256339613963,0.854983092858987,0.854983076872891,0.8549831675184478,0.8528357692699302
4.78125,0.9442377391136709,0.9442378118125632,0.8550634254177254,0.944237787173904,0.9442378597796015,0.8550634590825936,0.8550634532171415,0.8550635209376196,0.8662551162141625
4.84375,0.9381512438348416,0.9381513123527512,0.85682565222546,0.9381512881752307,0.9381513566081772,0.8568256733807615,0.8568256772019396,0.8568257215974242,0.8807800747694472
4.90625,0.9341003522450393,0.9341004160730861,0.8604226493161988,0.9341003927931233,0.9341004565504498,0.8604226582632108,0.8604226711443417,0.8604226928393928,0.8959186273881556
4.96875,0.9317421508889794,0.9317422095342387,0.865967672591502,0.9317421875609533,0.9317422461558387,0.8659676701011918,0.8659676911596819,0.865967691630452,0.911350919143203
5.03125,0.9307843390306125,0.9307843919562373,0.8735359627800463,0.9307843716791027,0.9307844245692216,0.8735359499730677,0.8735359781086416,0.8735359593982608,0.9269175174534041
5.09375,0.9310042684233686,0.9310043150518439,0.8831315328456739,0.9310042968334287,0.9310043434446804,0.8831315109797657,0.8831315450479806,0.8831315094164012,0.9426264324028182
5.15625,0.9322215915310181,0.9322216312846301,0.8946441920928123,0.9322216154678777,0.9322216552170346,0.8946441623647203,0.8946442013492941,0.8946441509828844,0.9585855057344759
5.21875,0.9342988421372915,0.9342988744669043,0.9078413025255898,0.9342988613666989,0.9342988937019641,0.9078412660430146,0.9078413090671944,0.9078412460015812,0.9749997314826402
5.28125,0.9371190449939277,0.9371190694067728,0.9224090046032813,0.9371190593097829,0.9371190837358903,0.9224089624341687,0.9224090087025232,0.9224089348725286,0.9921130214593745
5.34375,0.9405991495719945,0.9405991656650698,0.937993800905879,0.9405991588050746,0.9405991749171996,0.9379937541383825,0.9379938028426196,0.937993720176074,1.010191748300187
5.40625,0.9446844674351027,0.9446844749421679,0.9542301669180375,0.9446844714851039,0.9446844790137767,0.9542301166852312,0.9542301669623896,0.9542300774356605,1.029392411482931
5.46875,0.949362465420343,0.9493624642657679,0.970745406001754,0.9493624642709406,0.9493624631390709,0.9707453534840624,0.970745404390982,0.9707453100629166,1.0495916545413309
5.53125,0.9546363096999642,0.9546363000399865,0.9871644280863023,0.954636303451462,0.9546362938141897,0.9871643744899998,0.9871644250216534,0.9871643280235816,1.0701240362455735
5.59375,0.9605100190246958,0.9605100012740309,1.0031133428716288,0.9605100079186037,0.9605099901900367,1.0031132893964951,1.0031133385109356,1.0031132410241739,1.089689552566952
5.65625,0.966953915194054,0.9669538900104264,1.0182320794330337,0.966953899616982,0.9669538744538748,1.018232027239243,1.0182320738950779,1.0182319781097675,1.1064842722269077
5.71875,0.9739033947021234,0.9739033629415736,1.032183974706868,0.9739033751671435,0.9739033434254338,1.0321839248954987,1.0321839680771063,1.0321838761514783,1.1186611086630904
5.78125,0.9812491039157649,0.9812490665816682,1.0446711242183184,0.9812490810349175,0.9812490437176322,1.0446710778074006,1.04467111656772,1.044671030563535,1.124842999948001
5.84375,0.9888534991406281,0.9888534573385286,1.0554459247311883,0.9888534735931813,0.9888534318056372,1.0554458826333715,1.05544591614035,1.0554458379459248,1.1245320935969545
5.90625,0.9965494581428658,0.9965494130404089,1.064324931773001,0.9965494306518643,0.9965493855618597,1.0643248947655835,1.0643249223590843,1.0643248536026846,1.1181659324390125
5.96875,1.004158306609007,1.0041582594043277,1.071191956294065,1.0041582779154083,1.004158230721096,1.0711919249874526,1.071191946232645,1.0711918881996283,1.1069276692012835
6.03125,1.0114915148751678,1.011491466770611,1.0759970628106785,1.011491485721482,1.011491437625434,1.075997037644342,1.0759970523483204,1.0759970059305957,1.0923656856603827
6.09375,1.0183705263092442,1.018370478487654,1.0787446854478233,1.018370497419518,1.0183704496049657,1.0787446666847487,1.078744674876205,1.0787446405746266,1.0760638607585093
6.15625,1.0246272812474402,1.0246272348488965,1.0794826283523378,1.0246272533151064,1.0246272069214832,1.0794826161048405,1.079482617992312,1.0794825959322836,1.0593801933179208
6.21875,1.030118340497527,1.0301182965946971,1.0782876911324735,1.0301183141655557,1.030118270266776,1.0782876853803316,1.0782876812946256,1.0782876712793907,1.043350366865937
6.28125,1.0347208723404187,1.0347208319147434,1.0752592933887328,1.0347208481916965,1.0347208077696024,1.0752592939954688,1.075259284349272,1.0752592859006604,1.0286569740788565
6.34375,1.0383433836919185,1.0383433476113666,1.070517896180398,1.038343362232789,1.0383433261554273,1.0705179028850438,1.0705178881568287,1.0705179005427503,1.0156906315515002
6.40625,1.0409207303038333,1.0409206992981233,1.0642181507282906,1.0409207119556019,1.0409206809522509,1.064218163115445,1.0642181438746228,1.064218166099554,1.0046025672245449
6.46875,1.0424232326717267,1.042423207313135,1.0565666089188284,1.042423217756193,1.0424231923999816,1.0565666263717723,1.0565666033171581,1.0565666341162867,0.9953880400143902
6.53125,1.0428506214433657,1.0428506021300237,1.0478396434762551,1.042850610178263,1.0428505908667471,1.047839665156964,1.0478396391497924,1.0478396769901224,0.9879312520952652
6.59375,1.042238604446604,1.0422385913904115,1.0383819266574115,1.0422385969360253,1.0422385838808825,1.0383819515324184,1.038381923575308,1.038381966719097,0.9820646767404568
6.65625,1.0406504858416028,1.0406504790633608,1.0285852180692956,1.0406504820793216,1.0406504753016446,1.0285852449887862,1.0285852161632327,1.0285852627727188,0.9775896278581016
