# density: 0.021017479720736955, temp: 85,# density: 0.021017479720736955, temp: 85
r,Ar_uv-Ar,r,Ar-Ar
0.000625,2.9614154577473073e-06,0.000625,7.094211618152713e-06
0.001875,2.959437917837704e-06,0.001875,7.094814908015223e-06
0.003125,2.955636617230084e-06,0.003125,7.095674511958805e-06
0.004375,2.949902782489744e-06,0.004375,7.096272145901139e-06
0.005625,2.942349958345858e-06,0.005625,7.096570048048534e-06
0.006875,2.9330280355566174e-06,0.006875,7.096666024608567e-06
0.008125,2.921954195045373e-06,0.008125,7.096642640647133e-06
0.009375,2.9091728954711016e-06,0.009375,7.096554242025377e-06
0.010625,2.894732268998723e-06,0.010625,7.096436618780899e-06
0.011875,2.8786628369914524e-06,0.011875,7.096304802445275e-06
0.013125,2.8609920725841675e-06,0.013125,7.096160498321069e-06
0.014375,2.8417660864477057e-06,0.014375,7.096004782880527e-06
0.015625,2.8210070830425593e-06,0.015625,7.095837759152346e-06
0.016875,2.7987540285323576e-06,0.016875,7.095659558586931e-06
0.018125,2.775035675028903e-06,0.018125,7.095469889861761e-06
0.019375,2.7498945840420674e-06,0.019375,7.095268301782198e-06
0.020625,2.7233402555282282e-06,0.020625,7.095055519101834e-06
0.021875000000000002,2.6954242180465826e-06,0.021875000000000002,7.094831754983488e-06
0.023125,2.6661655425641584e-06,0.023125,7.094597723522611e-06
0.024375,2.6356006728178727e-06,0.024375,7.094353939862685e-06
0.025625000000000002,2.6037572631310013e-06,0.025625000000000002,7.094100368476575e-06
0.026875,2.570669924040203e-06,0.026875,7.093838000571395e-06
0.028125,2.536363808758324e-06,0.028125,7.093567127469669e-06
0.029375000000000002,2.5008681561189405e-06,0.029375000000000002,7.093288026283062e-06
0.030625,2.464215391739799e-06,0.030625,7.093001009650379e-06
0.031875,2.42643163872458e-06,0.031875,7.092706759692646e-06
0.033125,2.3875499870484873e-06,0.033125,7.092405411412983e-06
0.034375,2.347596399943086e-06,0.034375,7.092097547456433e-06
0.035625000000000004,2.3065989864790026e-06,0.035625000000000004,7.091783366774962e-06
0.036875,2.264585123867846e-06,0.036875,7.091463086084104e-06
0.038125,2.22158131535366e-06,0.038125,7.091137003811809e-06
0.039375,2.177618110721369e-06,0.039375,7.0908051021945084e-06
0.040625,2.1327203612031553e-06,0.040625,7.090467295967073e-06
0.041875,2.0869160444192403e-06,0.041875,7.090123997244291e-06
0.043125000000000004,2.0402301608157813e-06,0.043125000000000004,7.089775053259473e-06
0.044375,1.9926876007048122e-06,0.044375,7.0894206807281535e-06
0.045625,1.9443146364039876e-06,0.045625,7.089060964915461e-06
0.046875,1.8951373021991458e-06,0.046875,7.0886960230609475e-06
0.048125,1.845180392479051e-06,0.048125,7.088325926218886e-06
0.049375,1.7944634649325053e-06,0.049375,7.0879506601784215e-06
0.050625,1.743019662825418e-06,0.050625,7.087570409680666e-06
0.051875000000000004,1.6908656306213743e-06,0.051875000000000004,7.087185348808589e-06
0.053125,1.6380271183891182e-06,0.053125,7.0867954953257595e-06
0.054375,1.5845282028692509e-06,0.054375,7.086400884759314e-06
0.055625,1.5303893228235665e-06,0.055625,7.086001559741817e-06
0.056875,1.4756336206289689e-06,0.056875,7.08559785067564e-06
0.058125,1.4202836560173182e-06,0.058125,7.085189654532087e-06
0.059375000000000004,1.3643610188296407e-06,0.059375000000000004,7.084777049470858e-06
0.060625,1.307888087609399e-06,0.060625,7.084360241549348e-06
0.061875,1.2508848641346049e-06,0.061875,7.083939138397e-06
0.063125,1.1933727499524593e-06,0.063125,7.083513970940203e-06
0.064375,1.1353702227268059e-06,0.064375,7.083084724968103e-06
0.065625,1.0768995153398464e-06,0.065625,7.082651382717131e-06
0.066875,1.0179825409295518e-06,0.066875,7.082214114717544e-06
0.068125,9.586362494928835e-07,0.068125,7.081772974260048e-06
0.069375,8.988788806618686e-07,0.069375,7.081327943581073e-06
0.07062500000000001,8.387308270130234e-07,0.07062500000000001,7.080879079524038e-06
0.07187500000000001,7.782110635901063e-07,0.07187500000000001,7.080426495775782e-06
0.073125,7.173376488367467e-07,0.073125,7.079970153256454e-06
0.074375,6.56129547138562e-07,0.074375,7.079510140783896e-06
0.075625,5.946047707539037e-07,0.075625,7.079046465463534e-06
0.076875,5.327770331575721e-07,0.076875,7.078579162822507e-06
0.078125,4.7066837183251664e-07,0.078125,7.078108232860814e-06
0.079375,4.082951328143736e-07,0.079375,7.077633721763732e-06
0.080625,3.4567347739766774e-07,0.080625,7.077155661505685e-06
0.081875,2.8281752761927237e-07,0.081875,7.076674076955669e-06
0.083125,2.1974794961465705e-07,0.083125,7.076188921928406e-06
0.084375,1.5647655970951746e-07,0.084375,7.075700242609173e-06
0.085625,9.302433312541325e-08,0.085625,7.07520802833983e-06
0.08687500000000001,2.9401554968444543e-08,0.08687500000000001,7.074712332411082e-06
0.088125,-3.437401474570834e-08,0.088125,7.074213090874082e-06
0.089375,-9.828739422346189e-08,0.089375,7.073710335703254e-06
0.090625,-1.6232446853337024e-07,0.090625,7.073204034924174e-06
0.091875,-2.2647106590056865e-07,0.091875,7.072694206300412e-06
0.093125,-2.9071077634057474e-07,0.093125,7.072180828515684e-06
0.094375,-3.550309202182689e-07,0.094375,7.071663876700995e-06
0.095625,-4.19417130359534e-07,0.095625,7.071143361514487e-06
0.096875,-4.838583258504059e-07,0.096875,7.070619258087163e-06
0.098125,-5.483359544200539e-07,0.098125,7.070091523786459e-06
0.099375,-6.128420722006922e-07,0.099375,7.069560115979812e-06
0.100625,-6.773598713039064e-07,0.100625,7.069025077299784e-06
0.10187500000000001,-7.418797167701996e-07,0.10187500000000001,7.0684863047176805e-06
0.10312500000000001,-8.063878453867801e-07,0.10312500000000001,7.067943840866064e-06
0.104375,-8.708711263238911e-07,0.104375,7.0673975933743804e-06
0.105625,-9.353196048778045e-07,0.105625,7.066847537373633e-06
0.106875,-9.99719183880643e-07,0.106875,7.0662936728638215e-06
0.108125,-1.0640585621501941e-06,0.108125,7.065735943001528e-06
0.109375,-1.128328062094397e-06,0.109375,7.065174276732478e-06
0.110625,-1.1925146630176187e-06,0.110625,7.064608681162099e-06
0.111875,-1.2566080940246138e-06,0.111875,7.0640390674725495e-06
0.113125,-1.3205975584185126e-06,0.113125,7.063465421452975e-06
0.114375,-1.3844719539690686e-06,0.114375,7.062887721787092e-06
0.115625,-1.4482214432121054e-06,0.115625,7.06230584057721e-06
0.116875,-1.5118382812318032e-06,0.116875,7.061719788481469e-06
0.11812500000000001,-1.5753077526881043e-06,0.11812500000000001,7.061129497998309e-06
0.11937500000000001,-1.6386219741093555e-06,0.11937500000000001,7.060534962022302e-06
0.120625,-1.7017718754175348e-06,0.120625,7.059936024234048e-06
0.121875,-1.764747725729876e-06,0.121875,7.059332716607969e-06
0.123125,-1.8275404727319255e-06,0.123125,7.058724950326223e-06
0.124375,-1.8901414904348712e-06,0.124375,7.058112693414387e-06
0.12562500000000001,-1.952540458205476e-06,0.12562500000000001,7.0574958925817555e-06
0.12687500000000002,-2.014729915345015e-06,0.12687500000000002,7.056874466115914e-06
0.128125,-2.0767013637623677e-06,0.128125,7.056248318093594e-06
0.129375,-2.1384467316920563e-06,0.129375,7.055617459172936e-06
0.130625,-2.1999585122500775e-06,0.130625,7.054981786325243e-06
0.131875,-2.2612264167776175e-06,0.131875,7.0543412498125235e-06
0.133125,-2.3222436986714e-06,0.133125,7.053695828318496e-06
0.134375,-2.383003362638192e-06,0.134375,7.053045379734613e-06
0.135625,-2.4434976353404636e-06,0.135625,7.0523898756391645e-06
0.136875,-2.5037196351718194e-06,0.136875,7.051729284057728e-06
0.138125,-2.563660551402336e-06,0.138125,7.051063516172462e-06
0.139375,-2.623316234462436e-06,0.139375,7.050392490270951e-06
0.140625,-2.682678267973415e-06,0.140625,7.0497161672733455e-06
0.141875,-2.7417405590313138e-06,0.141875,7.049034479678085e-06
0.143125,-2.800497011179459e-06,0.143125,7.0483473528781815e-06
0.144375,-2.8589395277833773e-06,0.144375,7.047654712266649e-06
0.145625,-2.9170637816378076e-06,0.145625,7.046956490341927e-06
0.146875,-2.974863839710906e-06,0.146875,7.046252658682306e-06
0.148125,-3.032332170249674e-06,0.148125,7.045543128469944e-06
0.149375,-3.089467064398832e-06,0.149375,7.044827789570718e-06
0.150625,-3.1462578853336254e-06,0.150625,7.04410664553734e-06
0.151875,-3.2027014995605896e-06,0.151875,7.0433796075519695e-06
0.153125,-3.258794350813332e-06,0.153125,7.042646586796764e-06
0.154375,-3.314530697906548e-06,0.154375,7.041907544191872e-06
0.155625,-3.369902870531405e-06,0.155625,7.041162415788449e-06
0.15687500000000001,-3.4249093197047387e-06,0.15687500000000001,7.040411119874079e-06
0.15812500000000002,-3.4795433734302605e-06,0.15812500000000002,7.039653553420067e-06
0.15937500000000002,-3.533802473754122e-06,0.15937500000000002,7.038889727084552e-06
0.160625,-3.587680772909607e-06,0.160625,7.0381195591551204e-06
0.161875,-3.64117511608697e-06,0.161875,7.037342907523225e-06
0.163125,-3.694279243404708e-06,0.163125,7.036559821926858e-06
0.164375,-3.7469925260325e-06,0.164375,7.035770131835761e-06
0.165625,-3.7993074606390564e-06,0.165625,7.034973858566218e-06
0.166875,-3.851223617346022e-06,0.166875,7.034170877773249e-06
0.168125,-3.9027345941633484e-06,0.168125,7.0333611716932865e-06
0.169375,-3.953840479908877e-06,0.169375,7.032544637297633e-06
0.170625,-4.004535327339909e-06,0.170625,7.031721249717293e-06
0.171875,-4.0548153315000945e-06,0.171875,7.030890923687139e-06
0.173125,-4.104679486971463e-06,0.173125,7.030053598811037e-06
0.174375,-4.154122997590548e-06,0.174375,7.029209196929287e-06
0.175625,-4.20314634652641e-06,0.175625,7.028357693172893e-06
0.176875,-4.251743050076584e-06,0.176875,7.027499016487582e-06
0.178125,-4.299911640970322e-06,0.178125,7.026633113582648e-06
0.179375,-4.3476483462256965e-06,0.179375,7.025759895640249e-06
0.180625,-4.39495442350335e-06,0.180625,7.024879327133249e-06
0.181875,-4.441825669943e-06,0.181875,7.023991358323656e-06
0.183125,-4.488257868473511e-06,0.183125,7.023095886182773e-06
0.184375,-4.534253079668815e-06,0.184375,7.022192928474169e-06
0.185625,-4.579805455762198e-06,0.185625,7.021282339536583e-06
0.186875,-4.624914204498509e-06,0.186875,7.020364151344438e-06
0.18812500000000001,-4.669578785865269e-06,0.18812500000000001,7.019438278632606e-06
0.18937500000000002,-4.713795881627902e-06,0.18937500000000002,7.0185046432413856e-06
0.19062500000000002,-4.757564891377797e-06,0.19062500000000002,7.01756320964364e-06
0.19187500000000002,-4.800884937594674e-06,0.19187500000000002,7.016613924548665e-06
0.193125,-4.843754435768233e-06,0.193125,7.015656752429322e-06
0.194375,-4.886171080187296e-06,0.194375,7.014691629336767e-06
0.195625,-4.928132302239874e-06,0.195625,7.013718477111297e-06
0.196875,-4.969642027674581e-06,0.196875,7.0127372922002e-06
0.198125,-5.010693300278035e-06,0.198125,7.011747999996487e-06
0.199375,-5.051288983537461e-06,0.199375,7.0107505472094545e-06
0.200625,-5.091426832137813e-06,0.200625,7.009744905417392e-06
0.201875,-5.131106181721634e-06,0.201875,7.008731024882309e-06
0.203125,-5.170326801362535e-06,0.203125,7.007708859418926e-06
0.204375,-5.209088506319404e-06,0.204375,7.006678341525685e-06
0.205625,-5.247388411788734e-06,0.205625,7.0056394640971575e-06
0.206875,-5.285227718587748e-06,0.206875,7.004592166737211e-06
0.208125,-5.322606597246704e-06,0.208125,7.003536410365996e-06
0.209375,-5.359524735126797e-06,0.209375,7.002472141692806e-06
0.210625,-5.395980103628517e-06,0.210625,7.00139933940136e-06
0.211875,-5.431973608693852e-06,0.211875,7.000317932437383e-06
0.213125,-5.4675050868979724e-06,0.213125,6.9992279243535904e-06
0.214375,-5.502575962879064e-06,0.214375,6.998129244095708e-06
0.215625,-5.537184534887274e-06,0.215625,6.997021845478457e-06
0.216875,-5.5713306181814914e-06,0.216875,6.99590573915998e-06
0.218125,-5.605014692378063e-06,0.218125,6.994780850533289e-06
0.21937500000000001,-5.6382391271370125e-06,0.21937500000000001,6.993647140518533e-06
0.22062500000000002,-5.670998913132053e-06,0.22062500000000002,6.99250461622114e-06
0.22187500000000002,-5.703300644199771e-06,0.22187500000000002,6.991353192375982e-06
0.22312500000000002,-5.735141400009525e-06,0.22312500000000002,6.990192872535772e-06
0.224375,-5.766522473749092e-06,0.224375,6.989023642489656e-06
0.225625,-5.79744552453576e-06,0.225625,6.98784540276165e-06
0.226875,-5.8279067722821765e-06,0.226875,6.986658185326178e-06
0.228125,-5.857909581408194e-06,0.228125,6.985461940445248e-06
0.229375,-5.887457096065418e-06,0.229375,6.984256636144437e-06
0.230625,-5.916546616191454e-06,0.230625,6.983042236896608e-06
0.231875,-5.945179928801281e-06,0.231875,6.981818732043621e-06
0.233125,-5.973358838673448e-06,0.233125,6.980586110927334e-06
0.234375,-6.001083111328853e-06,0.234375,6.979344306046187e-06
0.235625,-6.028352331099995e-06,0.235625,6.978093349374603e-06
0.236875,-6.055171994034936e-06,0.236875,6.976833152094741e-06
0.238125,-6.081538241886619e-06,0.238125,6.975563724864742e-06
0.239375,-6.107454201043083e-06,0.239375,6.974285060579177e-06
0.240625,-6.132921004819991e-06,0.240625,6.97299711305277e-06
0.241875,-6.157939210993391e-06,0.241875,6.971699875180093e-06
0.243125,-6.182510471575142e-06,0.243125,6.9703933149867225e-06
0.244375,-6.206636676608923e-06,0.244375,6.969077450236227e-06
0.245625,-6.2303170835775745e-06,0.245625,6.96775223474333e-06
0.246875,-6.253555724811122e-06,0.246875,6.9664176436390335e-06
0.248125,-6.276351136591529e-06,0.248125,6.96507364850163e-06
0.249375,-6.298707958762861e-06,0.249375,6.963720284858255e-06
0.250625,-6.32062230110364e-06,0.250625,6.962357502970917e-06
0.251875,-6.34210151773118e-06,0.251875,6.960985274417908e-06
0.253125,-6.363143061349774e-06,0.253125,6.959603648937218e-06
0.254375,-6.383751387062375e-06,0.254375,6.958212562580002e-06
0.255625,-6.403926605003107e-06,0.255625,6.956811994029977e-06
0.256875,-6.423667496591179e-06,0.256875,6.9554019788142796e-06
0.258125,-6.442980602372472e-06,0.258125,6.9539824743003464e-06
0.259375,-6.461865289963953e-06,0.259375,6.9525534662773225e-06
0.260625,-6.480322589652587e-06,0.260625,6.951114972508776e-06
0.261875,-6.498354270689788e-06,0.261875,6.949666978783853e-06
0.263125,-6.515961786135449e-06,0.263125,6.948209446022702e-06
0.264375,-6.533150187948422e-06,0.264375,6.946742427516028e-06
0.265625,-6.549916399478661e-06,0.265625,6.945265855762273e-06
0.26687500000000003,-6.56626460582288e-06,0.26687500000000003,6.943779759183144e-06
0.268125,-6.5821977841551416e-06,0.268125,6.942284127120502e-06
0.26937500000000003,-6.5977146626039485e-06,0.26937500000000003,6.940778970232486e-06
0.270625,-6.612820577345246e-06,0.270625,6.939264256544675e-06
0.27187500000000003,-6.627514828494441e-06,0.27187500000000003,6.93774000737335e-06
0.273125,-6.6417985316036265e-06,0.273125,6.936206222718511e-06
0.274375,-6.655676337175009e-06,0.274375,6.934662888369303e-06
0.275625,-6.669149573923505e-06,0.275625,6.933110025642009e-06
0.276875,-6.6822199826788165e-06,0.276875,6.931547623878487e-06
0.278125,-6.694886060643057e-06,0.278125,6.929975661762455e-06
0.279375,-6.707155552732047e-06,0.279375,6.92839416416291e-06
0.280625,-6.719026600876532e-06,0.280625,6.926803138185278e-06
0.281875,-6.73050250554752e-06,0.281875,6.925202587382273e-06
0.283125,-6.7415848583607385e-06,0.283125,6.923592504648468e-06
0.284375,-6.752276050292494e-06,0.284375,6.921972879325722e-06
0.285625,-6.7625779109903306e-06,0.285625,6.920343771810167e-06
0.286875,-6.772492032069977e-06,0.286875,6.918705146574666e-06
0.288125,-6.782021998219534e-06,0.288125,6.917056996513793e-06
0.289375,-6.7911688503841106e-06,0.289375,6.915399382023679e-06
0.290625,-6.799933192525032e-06,0.290625,6.913732260471761e-06
0.291875,-6.8083206983260425e-06,0.291875,6.912055670937889e-06
0.293125,-6.816329747749705e-06,0.293125,6.910369613422063e-06
0.294375,-6.823965900792928e-06,0.294375,6.9086740772661415e-06
0.295625,-6.831228333226136e-06,0.295625,6.906969108655403e-06
0.296875,-6.838119851693136e-06,0.296875,6.905254696931706e-06
0.29812500000000003,-6.844644488523954e-06,0.29812500000000003,6.9035308634113335e-06
0.299375,-6.85080375006919e-06,0.299375,6.901797604541571e-06
0.30062500000000003,-6.856597902782369e-06,0.30062500000000003,6.900054973613123e-06
0.301875,-6.86203184230294e-06,0.301875,6.898302942204282e-06
0.30312500000000003,-6.867105106778126e-06,0.30312500000000003,6.896541528078615e-06
0.304375,-6.871822805010197e-06,0.304375,6.894770788079541e-06
0.305625,-6.876182517601137e-06,0.305625,6.8929906582582134e-06
0.306875,-6.880191449454287e-06,0.306875,6.891201238090616e-06
0.308125,-6.883850726779883e-06,0.308125,6.8894024884968985e-06
0.309375,-6.887160694191152e-06,0.309375,6.887594459215052e-06
0.310625,-6.890124815583931e-06,0.310625,6.885777139586935e-06
0.311875,-6.892746053921428e-06,0.311875,6.8839505793505396e-06
0.313125,-6.895023830111313e-06,0.313125,6.882114771400438e-06
0.314375,-6.8969640061311566e-06,0.314375,6.8802697441583405e-06
0.315625,-6.8985661378917484e-06,0.315625,6.878415522493242e-06
0.316875,-6.8998337567904855e-06,0.316875,6.87655211351057e-06
0.318125,-6.900768674711344e-06,0.318125,6.8746795420793205e-06
0.319375,-6.9013733714484715e-06,0.319375,6.872797857937485e-06
0.320625,-6.901650177582042e-06,0.320625,6.870907025557926e-06
0.321875,-6.901600400510688e-06,0.321875,6.869007108889491e-06
0.323125,-6.9012284527047996e-06,0.323125,6.8670981256957475e-06
0.324375,-6.900535652221151e-06,0.324375,6.865180083082123e-06
0.325625,-6.899523221193249e-06,0.325625,6.8632530378920364e-06
0.326875,-6.898193280591158e-06,0.326875,6.861316975914633e-06
0.328125,-6.896550203805418e-06,0.328125,6.859371936229763e-06
0.32937500000000003,-6.8945957742982955e-06,0.32937500000000003,6.857417957917278e-06
0.330625,-6.892330532082269e-06,0.330625,6.855455033871749e-06
0.33187500000000003,-6.889758672912194e-06,0.33187500000000003,6.85348322448931e-06
0.333125,-6.886881404710721e-06,0.333125,6.851502558191669e-06
0.33437500000000003,-6.883701328064262e-06,0.33437500000000003,6.849513031426113e-06
0.335625,-6.880221672389553e-06,0.335625,6.847514654850784e-06
0.336875,-6.8764416667477235e-06,0.336875,6.845507542152518e-06
0.338125,-6.872367116272926e-06,0.338125,6.843491636487897e-06
0.339375,-6.867999164938965e-06,0.339375,6.841466991147627e-06
0.340625,-6.863339585549966e-06,0.340625,6.839433655869698e-06
0.341875,-6.858389962616229e-06,0.341875,6.837391644864965e-06
0.343125,-6.853155703367975e-06,0.343125,6.835340983002425e-06
0.344375,-6.847634750783982e-06,0.344375,6.833281712914641e-06
0.345625,-6.84183299526353e-06,0.345625,6.831213848812467e-06
0.346875,-6.835751591438566e-06,0.346875,6.829137426223042e-06
0.348125,-6.829393004892381e-06,0.348125,6.827052491331642e-06
0.349375,-6.822757349311814e-06,0.349375,6.824959076112691e-06
0.350625,-6.815850159824777e-06,0.350625,6.822857180566189e-06
0.351875,-6.808673244762531e-06,0.351875,6.820746882851836e-06
0.353125,-6.801225620023388e-06,0.353125,6.818628172311492e-06
0.354375,-6.793512834946114e-06,0.354375,6.816501123552143e-06
0.355625,-6.785535848763402e-06,0.355625,6.814365754337359e-06
0.356875,-6.777298359850192e-06,0.356875,6.812222061114426e-06
0.358125,-6.768800442813472e-06,0.358125,6.810070143359326e-06
0.359375,-6.760046396436792e-06,0.359375,6.807909997519346e-06
0.36062500000000003,-6.75103609282246e-06,0.36062500000000003,6.805741634252627e-06
0.361875,-6.741775791851978e-06,0.361875,6.803565160140579e-06
0.36312500000000003,-6.7322630634691905e-06,0.36312500000000003,6.80138058228863e-06
0.364375,-6.722503794520662e-06,0.364375,6.7991878864859245e-06
0.36562500000000003,-6.712497075511692e-06,0.36562500000000003,6.796987172208446e-06
0.366875,-6.7022491343493584e-06,0.366875,6.794778450114336e-06
0.368125,-6.691758180465968e-06,0.368125,6.792561748625303e-06
0.369375,-6.681030377819752e-06,0.369375,6.790337117479339e-06
0.370625,-6.6700635876770775e-06,0.370625,6.78810462062529e-06
0.371875,-6.658862709230107e-06,0.371875,6.785864240299588e-06
0.373125,-6.647430858208736e-06,0.373125,6.783616065320075e-06
0.374375,-6.635769349117027e-06,0.374375,6.781360106344891e-06
0.375625,-6.6238800293660915e-06,0.375625,6.779096395348461e-06
